The spectra data was collected at evenly-spaced wavelengths, and you know the starting wavelength (λstart),
the spacing (λdelta), and the number of observations.

Each column of spectra is the spectrum of a different star. The sixth column is the spectrum of star HD 94028.

loglog function is used in the same way as the plot function to obtain log scales for both axes.
sHa and idx - contain the minimum value of s and the index where the minimum value occurred.
Use idx to index into lambda to find the wavelength of the Hydrogen-alpha line. Store the result as lambdaHa (λHa)

/***********************************************************************************************************************************/
INPUT CODE:
/***********************************************************************************************************************************/

lambdaEnd = lambdaStart + (nObs - 1) * lambdaDelta
lambda = (lambdaStart:lambdaDelta:lambdaEnd)'
s = spectra(:,6)
loglog(lambda,s,'.-')
[sHa,idx] = min(s)
lambdaHa = lambda(idx)

/***********************************************************************************************************************************/
OUTPUT : 
/***********************************************************************************************************************************/

lambdaEnd =

  679.8600

lambda =

  630.0200
  630.1600
  630.3000
  630.4400
  630.5800
  630.7200
  630.8600
  631.0000
  631.1400
  631.2800
  631.4200
  631.5600
  631.7000
  631.8400
  631.9800
  632.1200
  632.2600
  632.4000
  632.5400
  632.6800
  632.8200
  632.9600
  633.1000
  633.2400
  633.3800
  633.5200
  633.6600
  633.8000
  633.9400
  634.0800
  634.2200
  634.3600
  634.5000
  634.6400
  634.7800
  634.9200
  635.0600
  635.2000
  635.3400
  635.4800
  635.6200
  635.7600
  635.9000
  636.0400
  636.1800
  636.3200
  636.4600
  636.6000
  636.7400
  636.8800
  637.0200
  637.1600
  637.3000
  637.4400
  637.5800
  637.7200
  637.8600
  638.0000
  638.1400
  638.2800
  638.4200
  638.5600
  638.7000
  638.8400
  638.9800
  639.1200
  639.2600
  639.4000
  639.5400
  639.6800
  639.8200
  639.9600
  640.1000
  640.2400
  640.3800
  640.5200
  640.6600
  640.8000
  640.9400
  641.0800
  641.2200
  641.3600
  641.5000
  641.6400
  641.7800
  641.9200
  642.0600
  642.2000
  642.3400
  642.4800
  642.6200
  642.7600
  642.9000
  643.0400
  643.1800
  643.3200
  643.4600
  643.6000
  643.7400
  643.8800
  644.0200
  644.1600
  644.3000
  644.4400
  644.5800
  644.7200
  644.8600
  645.0000
  645.1400
  645.2800
  645.4200
  645.5600
  645.7000
  645.8400
  645.9800
  646.1200
  646.2600
  646.4000
  646.5400
  646.6800
  646.8200
  646.9600
  647.1000
  647.2400
  647.3800
  647.5200
  647.6600
  647.8000
  647.9400
  648.0800
  648.2200
  648.3600
  648.5000
  648.6400
  648.7800
  648.9200
  649.0600
  649.2000
  649.3400
  649.4800
  649.6200
  649.7600
  649.9000
  650.0400
  650.1800
  650.3200
  650.4600
  650.6000
  650.7400
  650.8800
  651.0200
  651.1600
  651.3000
  651.4400
  651.5800
  651.7200
  651.8600
  652.0000
  652.1400
  652.2800
  652.4200
  652.5600
  652.7000
  652.8400
  652.9800
  653.1200
  653.2600
  653.4000
  653.5400
  653.6800
  653.8200
  653.9600
  654.1000
  654.2400
  654.3800
  654.5200
  654.6600
  654.8000
  654.9400
  655.0800
  655.2200
  655.3600
  655.5000
  655.6400
  655.7800
  655.9200
  656.0600
  656.2000
  656.3400
  656.4800
  656.6200
  656.7600
  656.9000
  657.0400
  657.1800
  657.3200
  657.4600
  657.6000
  657.7400
  657.8800
  658.0200
  658.1600
  658.3000
  658.4400
  658.5800
  658.7200
  658.8600
  659.0000
  659.1400
  659.2800
  659.4200
  659.5600
  659.7000
  659.8400
  659.9800
  660.1200
  660.2600
  660.4000
  660.5400
  660.6800
  660.8200
  660.9600
  661.1000
  661.2400
  661.3800
  661.5200
  661.6600
  661.8000
  661.9400
  662.0800
  662.2200
  662.3600
  662.5000
  662.6400
  662.7800
  662.9200
  663.0600
  663.2000
  663.3400
  663.4800
  663.6200
  663.7600
  663.9000
  664.0400
  664.1800
  664.3200
  664.4600
  664.6000
  664.7400
  664.8800
  665.0200
  665.1600
  665.3000
  665.4400
  665.5800
  665.7200
  665.8600
  666.0000
  666.1400
  666.2800
  666.4200
  666.5600
  666.7000
  666.8400
  666.9800
  667.1200
  667.2600
  667.4000
  667.5400
  667.6800
  667.8200
  667.9600
  668.1000
  668.2400
  668.3800
  668.5200
  668.6600
  668.8000
  668.9400
  669.0800
  669.2200
  669.3600
  669.5000
  669.6400
  669.7800
  669.9200
  670.0600
  670.2000
  670.3400
  670.4800
  670.6200
  670.7600
  670.9000
  671.0400
  671.1800
  671.3200
  671.4600
  671.6000
  671.7400
  671.8800
  672.0200
  672.1600
  672.3000
  672.4400
  672.5800
  672.7200
  672.8600
  673.0000
  673.1400
  673.2800
  673.4200
  673.5600
  673.7000
  673.8400
  673.9800
  674.1200
  674.2600
  674.4000
  674.5400
  674.6800
  674.8200
  674.9600
  675.1000
  675.2400
  675.3800
  675.5200
  675.6600
  675.8000
  675.9400
  676.0800
  676.2200
  676.3600
  676.5000
  676.6400
  676.7800
  676.9200
  677.0600
  677.2000
  677.3400
  677.4800
  677.6200
  677.7600
  677.9000
  678.0400
  678.1800
  678.3200
  678.4600
  678.6000
  678.7400
  678.8800
  679.0200
  679.1600
  679.3000
  679.4400
  679.5800
  679.7200
  679.8600



s =
   1.0e-12 *

    0.1625
    0.1630
    0.1615
    0.1586
    0.1574
    0.1589
    0.1611
    0.1607
    0.1593
    0.1582
    0.1582
    0.1606
    0.1612
    0.1595
    0.1575
    0.1561
    0.1588
    0.1620
    0.1615
    0.1599
    0.1602
    0.1598
    0.1587
    0.1578
    0.1573
    0.1581
    0.1613
    0.1609
    0.1602
    0.1607
    0.1615
    0.1601
    0.1595
    0.1592
    0.1595
    0.1601
    0.1599
    0.1596
    0.1607
    0.1590
    0.1556
    0.1561
    0.1594
    0.1598
    0.1586
    0.1591
    0.1601
    0.1609
    0.1610
    0.1596
    0.1580
    0.1577
    0.1576
    0.1570
    0.1570
    0.1576
    0.1560
    0.1543
    0.1554
    0.1576
    0.1579
    0.1575
    0.1556
    0.1550
    0.1572
    0.1577
    0.1567
    0.1566
    0.1563
    0.1546
    0.1536
    0.1554
    0.1566
    0.1548
    0.1526
    0.1541
    0.1590
    0.1595
    0.1582
    0.1584
    0.1578
    0.1560
    0.1554
    0.1554
    0.1547
    0.1546
    0.1554
    0.1568
    0.1567
    0.1543
    0.1538
    0.1548
    0.1552
    0.1559
    0.1548
    0.1544
    0.1554
    0.1558
    0.1554
    0.1552
    0.1537
    0.1527
    0.1541
    0.1561
    0.1554
    0.1540
    0.1530
    0.1530
    0.1549
    0.1563
    0.1554
    0.1546
    0.1542
    0.1520
    0.1517
    0.1532
    0.1525
    0.1496
    0.1497
    0.1533
    0.1572
    0.1588
    0.1569
    0.1544
    0.1533
    0.1528
    0.1530
    0.1536
    0.1536
    0.1527
    0.1515
    0.1500
    0.1491
    0.1503
    0.1538
    0.1550
    0.1535
    0.1523
    0.1522
    0.1492
    0.1484
    0.1489
    0.1474
    0.1492
    0.1513
    0.1531
    0.1523
    0.1485
    0.1496
    0.1528
    0.1537
    0.1526
    0.1521
    0.1521
    0.1516
    0.1510
    0.1502
    0.1491
    0.1490
    0.1507
    0.1511
    0.1480
    0.1462
    0.1480
    0.1475
    0.1472
    0.1479
    0.1479
    0.1469
    0.1457
    0.1453
    0.1454
    0.1468
    0.1480
    0.1475
    0.1452
    0.1432
    0.1442
    0.1454
    0.1471
    0.1480
    0.1452
    0.1435
    0.1427
    0.1414
    0.1404
    0.1372
    0.1297
    0.1165
    0.1010
    0.0980
    0.1091
    0.1228
    0.1313
    0.1363
    0.1405
    0.1438
    0.1460
    0.1467
    0.1463
    0.1463
    0.1475
    0.1474
    0.1475
    0.1489
    0.1489
    0.1483
    0.1472
    0.1461
    0.1453
    0.1459
    0.1480
    0.1498
    0.1495
    0.1504
    0.1493
    0.1472
    0.1467
    0.1493
    0.1498
    0.1500
    0.1514
    0.1515
    0.1499
    0.1488
    0.1487
    0.1492
    0.1487
    0.1482
    0.1492
    0.1509
    0.1505
    0.1485
    0.1483
    0.1507
    0.1534
    0.1534
    0.1508
    0.1472
    0.1453
    0.1470
    0.1492
    0.1494
    0.1487
    0.1485
    0.1479
    0.1454
    0.1446
    0.1461
    0.1467
    0.1453
    0.1463
    0.1490
    0.1490
    0.1481
    0.1470
    0.1461
    0.1451
    0.1431
    0.1449
    0.1486
    0.1499
    0.1503
    0.1498
    0.1492
    0.1496
    0.1492
    0.1483
    0.1481
    0.1473
    0.1471
    0.1479
    0.1482
    0.1481
    0.1478
    0.1486
    0.1511
    0.1524
    0.1519
    0.1496
    0.1467
    0.1466
    0.1472
    0.1466
    0.1449
    0.1466
    0.1495
    0.1510
    0.1496
    0.1477
    0.1481
    0.1482
    0.1462
    0.1461
    0.1486
    0.1490
    0.1460
    0.1449
    0.1444
    0.1429
    0.1417
    0.1433
    0.1453
    0.1462
    0.1461
    0.1437
    0.1410
    0.1417
    0.1444
    0.1455
    0.1445
    0.1435
    0.1436
    0.1445
    0.1436
    0.1422
    0.1448
    0.1465
    0.1461
    0.1458
    0.1449
    0.1447
    0.1460
    0.1472
    0.1459
    0.1459
    0.1473
    0.1474
    0.1466
    0.1453
    0.1436
    0.1412
    0.1411
    0.1423
    0.1433
    0.1440
    0.1442
    0.1427
    0.1416
    0.1424
    0.1437
    0.1448
    0.1466
    0.1479
    0.1465
    0.1445
    0.1447
    0.1457
    0.1469
    0.1468
    0.1465
    0.1484
    0.1487
    0.1463
    0.1449
    0.1448
    0.1446


sHa =

   9.8010e-14


idx =

   191


lambdaHa =

  656.6200


/***********************************************************************************************************************************/


CONCLUSION:

The wavelength of the Hydrogen-alpha line of HD 94028 have been determined to be 656.62 nm, 
which is slightly longer than the laboratory value of 656.28 nm. 
nm - nanometer
